#Volume (Ang^3)   Helmholtz Free Energy (kJ/mol)
337.508473 845.337125
333.654574 846.051453
329.953023 846.750780
326.636487 847.388806
324.218483 847.861018
322.013479 848.296961
319.822761 848.735236
317.983981 849.107162
315.871534 849.539122
314.104269 849.904424
312.356311 850.269329
310.728547 850.612421
309.080125 850.963151
307.318402 851.341715
306.281361 851.566389
303.495814 852.176746
302.172377 852.470314
300.758502 852.786549
299.511364 853.067763
298.028332 853.404988
296.810965 853.684130
295.586040 853.967157
294.405260 854.242059
293.256162 854.511569
292.149370 854.773036
288.952715 855.538802
286.951332 856.026471
284.177966 856.713098
282.381583 857.164772
278.187125 858.241459
274.681372 859.166106
271.167453 860.116727
267.537387 861.125106
