#Volume (Ang^3)   Helmholtz Free Energy (kJ/mol)
337.508473 846.116792
333.654574 846.791593
329.953023 847.453923
326.636487 848.059629
324.218483 848.508781
322.013479 848.924072
319.822761 849.342192
317.983981 849.697482
315.871534 850.110651
314.104269 850.460499
312.356311 850.810361
310.728547 851.139661
309.080125 851.476639
307.318402 851.840747
306.281361 852.057028
303.495814 852.645275
302.172377 852.928561
300.758502 853.233970
299.511364 853.505770
298.028332 853.831968
296.810965 854.102194
295.586040 854.376374
294.405260 854.642865
293.256162 854.904302
292.149370 855.158096
288.952715 855.902273
286.951332 856.376857
284.177966 857.045900
282.381583 857.486522
278.187125 858.538434
274.681372 859.443467
271.167453 860.375411
267.537387 861.365510
