#Volume (Ang^3)   Helmholtz Free Energy (kJ/mol)
337.508473 820.443001
333.654574 821.625402
329.953023 822.776550
326.636487 823.821215
324.218483 824.590947
322.013479 825.298948
319.822761 826.008207
317.983981 826.608097
315.871534 827.302509
314.104269 827.887824
312.356311 828.470725
310.728547 829.017157
309.080125 829.574125
307.318402 830.173441
306.281361 830.528219
303.495814 831.488592
302.172377 831.948721
300.758502 832.443079
299.511364 832.881554
298.028332 833.405953
296.810965 833.838868
295.586040 834.276731
294.405260 834.700987
293.256162 835.115930
292.149370 835.517548
288.952715 836.688456
286.951332 837.429998
284.177966 838.468620
282.381583 839.148368
278.187125 840.757644
274.681372 842.127248
271.167453 843.523419
267.537387 844.991319
