#Volume (Ang^3)   Helmholtz Free Energy (kJ/mol)
337.508473 846.047305
333.654574 846.727821
329.953023 847.395313
326.636487 848.005375
324.218483 848.457547
322.013479 848.875481
319.822761 849.296121
317.983981 849.653449
315.871534 850.068872
314.104269 850.420536
312.356311 850.772131
310.728547 851.102992
309.080125 851.441500
307.318402 851.807186
306.281361 852.024369
303.495814 852.614943
302.172377 852.899286
300.758502 853.205791
299.511364 853.478531
298.028332 853.805813
296.810965 854.076902
295.586040 854.351927
294.405260 854.619210
293.256162 854.881398
292.149370 855.135896
288.952715 855.882008
286.951332 856.357731
284.177966 857.028264
282.381583 857.469799
278.187125 858.523688
274.681372 859.430220
271.167453 860.363535
267.537387 861.354922
