#Volume (Ang^3)   Helmholtz Free Energy (kJ/mol)
337.508473 813.247838
333.654574 814.523147
329.953023 815.764360
326.636487 816.890421
324.218483 817.719917
322.013479 818.482729
319.822761 819.246739
317.983981 819.892814
315.871534 820.640543
314.104269 821.270678
312.356311 821.898103
310.728547 822.486170
309.080125 823.085472
307.318402 823.730223
306.281361 824.111839
303.495814 825.144639
302.172377 825.639355
300.758502 826.170786
299.511364 826.642069
298.028332 827.205614
296.810965 827.670767
295.586040 828.141167
294.405260 828.596879
293.256162 829.042520
292.149370 829.473788
288.952715 830.730777
286.951332 831.526552
284.177966 832.640758
282.381583 833.369729
278.187125 835.094754
274.681372 836.561972
271.167453 838.056771
267.537387 839.627379
