#Volume (Ang^3)   Helmholtz Free Energy (kJ/mol)
337.508473 837.101926
333.654574 838.021241
329.953023 838.917704
326.636487 839.732510
324.218483 840.333663
322.013479 840.887206
319.822761 841.442317
317.983981 841.912294
315.871534 842.456861
314.104269 842.916329
312.356311 843.374322
310.728547 843.804046
309.080125 844.242444
307.318402 844.714618
306.281361 844.994351
303.495814 845.752407
302.172377 846.116039
300.758502 846.507039
299.511364 846.854118
298.028332 847.269561
296.810965 847.612815
295.586040 847.960262
294.405260 848.297172
293.256162 848.626935
292.149370 848.946347
288.952715 849.878939
286.951332 850.470616
284.177966 851.300750
282.381583 851.844960
278.187125 853.136302
274.681372 854.238677
271.167453 855.365718
267.537387 856.554349
