#Volume (Ang^3)   Helmholtz Free Energy (kJ/mol)
337.508473 826.842485
333.654574 827.934059
329.953023 828.997205
326.636487 829.962381
324.218483 830.673773
322.013479 831.328290
319.822761 831.984141
317.983981 832.538994
315.871534 833.181431
314.104269 833.723071
312.356311 834.262599
310.728547 834.768485
309.080125 835.284239
307.318402 835.839337
306.281361 836.168003
303.495814 837.057935
302.172377 837.484443
300.758502 837.942770
299.511364 838.349370
298.028332 838.835750
296.810965 839.237362
295.586040 839.643645
294.405260 840.037377
293.256162 840.422539
292.149370 840.795402
288.952715 841.882874
286.951332 842.571886
284.177966 843.537350
282.381583 844.169485
278.187125 845.666906
274.681372 846.942299
271.167453 848.243398
267.537387 849.612430
