#Volume (Ang^3)   Free Energy (kJ/mol)
337.508473 -813041.881511
333.654574 -813043.330486
329.953023 -813044.460808
326.636487 -813045.223364
324.218483 -813045.610876
322.013479 -813045.826856
319.822761 -813045.899400
317.983981 -813045.843270
315.871534 -813045.641431
314.104269 -813045.355027
312.356311 -813044.962060
310.728547 -813044.494297
309.080125 -813043.916801
307.318402 -813043.179805
306.281361 -813042.686167
303.495814 -813041.131557
302.172377 -813040.271601
300.758502 -813039.262882
299.511364 -813038.293602
298.028332 -813037.040877
296.810965 -813035.928810
295.586040 -813034.731309
294.405260 -813033.500300
293.256162 -813032.228063
292.149370 -813030.931552
288.952715 -813026.778113
286.951332 -813023.852885
284.177966 -813019.359103
282.381583 -813016.160842
278.187125 -813007.748695
274.681372 -812999.621738
271.167453 -812990.377996
267.537387 -812979.567584
