#Volume (Ang^3)   Free Energy (kJ/mol)
337.508473 -813001.044288
333.654574 -813003.202391
329.953023 -813005.001070
326.636487 -813006.357822
324.218483 -813007.179737
322.013479 -813007.795747
319.822761 -813008.272327
317.983981 -813008.561061
315.871534 -813008.758967
314.104269 -813008.807702
312.356311 -813008.745161
310.728547 -813008.583966
309.080125 -813008.315859
307.318402 -813007.908390
306.281361 -813007.608214
303.495814 -813006.571504
302.172377 -813005.956791
300.758502 -813005.209558
299.511364 -813004.470527
298.028332 -813003.491175
296.810965 -813002.603211
295.586040 -813001.630981
294.405260 -813000.616956
293.256162 -812999.555767
292.149370 -812998.462468
288.952715 -812994.895992
286.951332 -812992.338666
284.177966 -812988.355910
282.381583 -812985.489801
278.187125 -812977.858555
274.681372 -812970.392484
271.167453 -812961.821754
267.537387 -812951.721383
