#Volume (Ang^3)   Free Energy (kJ/mol)
337.508473 -813014.753753
333.654574 -813016.576334
329.953023 -813018.059234
326.636487 -813019.136602
324.218483 -813019.755728
322.013479 -813020.186555
319.822761 -813020.478022
317.983981 -813020.609795
315.871534 -813020.624805
314.104269 -813020.519509
312.356311 -813020.305446
310.728547 -813020.004109
309.080125 -813019.595005
307.318402 -813019.037846
306.281361 -813018.650023
303.495814 -813017.379539
302.172377 -813016.654564
300.758502 -813015.790076
299.511364 -813014.948060
298.028332 -813013.846754
296.810965 -813012.859073
295.586040 -813011.786837
294.405260 -813010.676700
293.256162 -813009.522228
292.149370 -813008.339294
288.952715 -813004.514892
286.951332 -813001.796606
284.177966 -812997.591104
282.381583 -812994.580689
278.187125 -812986.611422
274.681372 -812978.860329
271.167453 -812969.999923
267.537387 -812959.594078
