#Volume (Ang^3)   Free Energy (kJ/mol)
337.508473 -813006.302178
333.654574 -813008.290889
329.953023 -813009.930949
326.636487 -813011.148218
324.218483 -813011.869509
322.013479 -813012.394162
319.822761 -813012.779987
317.983981 -813012.992253
315.871534 -813013.101593
314.104269 -813013.075572
312.356311 -813012.939615
310.728547 -813012.710762
309.080125 -813012.374830
307.318402 -813011.895632
306.281361 -813011.553594
303.495814 -813010.405745
302.172377 -813009.738880
300.758502 -813008.936382
299.511364 -813008.148982
298.028332 -813007.112560
296.810965 -813006.178104
295.586040 -813005.159406
294.405260 -813004.100873
293.256162 -813002.996630
292.149370 -813001.862096
288.952715 -812998.177715
286.951332 -812995.547382
284.177966 -812991.464319
282.381583 -812988.533676
278.187125 -812980.752619
274.681372 -812973.161632
271.167453 -812964.465147
267.537387 -812954.233302
