#Volume (Ang^3)   Free Energy (kJ/mol)
337.508473 -813010.061761
333.654574 -813011.970083
329.953023 -813013.534202
326.636487 -813014.683988
324.218483 -813015.356084
322.013479 -813015.835632
319.822761 -813016.176178
317.983981 -813016.349888
315.871534 -813016.414074
314.104269 -813016.349964
312.356311 -813016.176504
310.728547 -813015.912867
309.080125 -813015.541843
307.318402 -813015.025280
306.281361 -813014.661310
303.495814 -813013.454762
302.172377 -813012.760108
300.758502 -813011.927982
299.511364 -813011.114494
298.028332 -813010.047099
296.810965 -813009.087253
295.586040 -813008.043029
294.405260 -813006.959908
293.256162 -813005.831746
292.149370 -813004.674178
288.952715 -813000.923234
286.951332 -812998.251150
284.177966 -812994.110045
282.381583 -812991.141637
278.187125 -812983.271640
274.681372 -812975.605172
271.167453 -812966.831577
267.537387 -812956.518060
